BEGIN_SCAN_DATA
	FORMAT=CC-Export V1.9
	FILE_CREATION_DATE=17-Sep-2015 12:43:57
	LAST_MODIFIED=17-Sep-2015 12:43:57
	BEGIN_SCAN  1
		TASK_NAME=tba PDD Profiles
		PROGRAM=tbaScan
		MEAS_DATE=27-May-2015 12:06:26
		LINAC=M2619
		MODALITY=X
		ISOCENTER=1000.00
		INPLANE_AXIS=Solid
		CROSSPLANE_AXIS=MLC
		DEPTH_AXIS=Depth
		INPLANE_AXIS_DIR=TARGET_GUN
		CROSSPLANE_AXIS_DIR=LEFT_RIGHT
		DEPTH_AXIS_DIR=UP_DOWN
		ENERGY=6.00
		NOMINAL_DMAX=15.00
		SSD=900.00
		SCD=450.00
		WEDGE_ANGLE=0.00
		FIELD_INPLANE=100.00
		FIELD_CROSSPLANE=100.00
		FIELD_TYPE=RECTANGULAR
		GANTRY=0.00
		GANTRY_UPRIGHT_POSITION=0
		GANTRY_ROTATION=CW
		COLL_ANGLE=0.00
		COLL_OFFSET_INPLANE=0.00
		COLL_OFFSET_CROSSPLANE=0.00
		SCAN_DEVICE=MP3
		SCAN_DEVICE_SETUP=BARA_TARGET_GUN
		ELECTROMETER=TANDEM
		RANGE_FIELD=AUTO
		RANGE_REFERENCE=AUTO
		DETECTOR=DOSIMETRY_DIODE
		DETECTOR_RADIUS=0.00
		DETECTOR_NAME=PTW 60008 Diode P
		DETECTOR_SN=0000
		DETECTOR_CALIBRATION=5700000.00
		DETECTOR_IS_CALIBRATED=0
		DETECTOR_REFERENCE=THIMBLE_CHAMBER
		DETECTOR_REFERENCE_SUBCODE=SEMIFLEX
		DETECTOR_REFERENCE_RADIUS=2.75
		DETECTOR_REFERENCE_NAME=PTW 31002 Semiflex
		DETECTOR_REFERENCE_SN=0000
		DETECTOR_REFERENCE_IS_CALIBRATED=0
		DETECTOR_REFERENCE_CALIBRATION=250000000.00
		DETECTOR_HV=0.0
		REF_FIELD_DEPTH=100.00
		REF_FIELD_DEFINED=ISOCENTER
		REF_FIELD_INPLANE=100.00
		REF_FIELD_CROSSPLANE=100.00
		REF_SCAN_POSITIONS=-160.00;-155.00;-150.00;-145.00;-140.00;-135.00;-130.00;-125.00;-120.00;-115.00;-110.00;-105.00;-100.00;-95.00;-90.00;-85.00;-80.00;-75.00;-70.00;-65.00;-64.00;-63.00;-62.00;-61.00;-60.00;-59.00;-58.00;-57.00;-56.00;-55.00;-54.00;-53.00;-52.00;-51.00;-50.00;-49.00;-48.00;-47.00;-46.00;-45.00;-44.00;-43.00;-42.00;-41.00;-40.00;-39.00;-38.00;-37.00;-36.00;-35.00;-34.00;-33.00;-32.00;-31.00;-30.00;-28.00;-26.00;-24.00;-22.00;-20.00;-18.00;-16.00;-14.00;-12.00;-10.00;-8.00;-6.00;-4.00;-2.00;0.00;2.00;4.00;6.00;8.00;10.00;12.00;14.00;16.00;18.00;20.00;22.00;24.00;26.00;28.00;30.00;31.00;32.00;33.00;34.00;35.00;36.00;37.00;38.00;39.00;40.00;41.00;42.00;43.00;44.00;45.00;46.00;47.00;48.00;49.00;50.00;51.00;52.00;53.00;54.00;55.00;56.00;57.00;58.00;59.00;60.00;61.00;62.00;63.00;64.00;65.00;70.00;75.00;80.00;85.00;90.00;95.00;100.00;105.00;110.00;115.00;120.00;125.00;130.00;135.00;140.00;145.00;150.00;155.00;160.00;
		REF_OVERSCAN_FACTOR=1.00
		SCAN_CURVETYPE=INPLANE_PROFILE
		SCAN_DEPTH=15.00
		SCAN_OFFAXIS_INPLANE=0.00
		SCAN_OFFAXIS_CROSSPLANE=0.00
		SCAN_ANGLE=0.00
		SCAN_DIAGONAL=NOT_DIAGONAL
		SCAN_DIRECTION=POSITIVE
		MEAS_MEDIUM=WATER
		MEAS_PRESET=MONITOR_TRIGGER
		MEAS_TRIGGER=400
		TIMEOUT=120.00
		EDGE=1
		MEAS_UNIT=cGy/MU
		SCAN_SPEEDS=20.00; 8.00;40.00; 25.00;100.00; 40.00;400.00; 50.00;
		DELAY_TIMES=40.00; 0.500;150.00; 0.000;400.00; 0.000;
		INCLINATION_ANGLE=0.00
		PRESSURE=1013.25
		TEMPERATURE=20.00
		NORM_TEMPERATURE=20.00
		CORRECTION_FACTOR=1.0000
		EXPECTED_MAX_DOSE_RATE=7.00
		CORRECTIONS=SMOOTHED_CORR;SYMMETRY_CORR;
		BEGIN_DATA
			-146.40		60.623E-06
			-141.82		63.835E-06
			-137.25		67.399E-06
			-132.68		71.141E-06
			-128.10		75.425E-06
			-123.53		80.056E-06
			-118.95		85.054E-06
			-114.38		90.397E-06
			-109.80		96.108E-06
			-105.23		103.59E-06
			-100.65		114.12E-06
			-96.08		126.77E-06
			-91.50		140.69E-06
			-86.93		156.90E-06
			-82.35		177.07E-06
			-77.78		202.36E-06
			-73.20		234.31E-06
			-68.63		274.74E-06
			-64.05		326.69E-06
			-59.48		390.62E-06
			-58.56		406.58E-06
			-57.65		425.73E-06
			-56.73		448.50E-06
			-55.82		474.74E-06
			-54.90		505.76E-06
			-53.99		544.42E-06
			-53.07		594.62E-06
			-52.16		659.16E-06
			-51.24		749.52E-06
			-50.33		879.49E-06
			-49.41		1.0812E-03
			-48.50		1.4172E-03
			-47.58		2.0244E-03
			-46.67		3.1667E-03
			-45.75		5.0683E-03
			-44.84		7.1431E-03
			-43.92		8.5793E-03
			-43.01		9.2518E-03
			-42.09		9.5578E-03
			-41.17		9.7161E-03
			-40.26		9.8051E-03
			-39.35		9.8671E-03
			-38.43		9.9127E-03
			-37.51		9.9433E-03
			-36.60		9.9709E-03
			-35.69		9.9904E-03
			-34.77		10.004E-03
			-33.85		10.019E-03
			-32.94		10.029E-03
			-32.03		10.037E-03
			-31.11		10.040E-03
			-30.20		10.040E-03
			-29.28		10.039E-03
			-28.36		10.035E-03
			-27.45		10.032E-03
			-25.62		10.028E-03
			-23.79		10.022E-03
			-21.96		10.008E-03
			-20.13		9.9964E-03
			-18.30		9.9921E-03
			-16.47		9.9858E-03
			-14.64		9.9788E-03
			-12.81		9.9729E-03
			-10.98		9.9634E-03
			-9.15		9.9540E-03
			-7.32		9.9438E-03
			-5.49		9.9306E-03
			-3.66		9.9201E-03
			-1.83		9.9167E-03
			0.00		9.9172E-03
			1.83		9.9167E-03
			3.66		9.9201E-03
			5.49		9.9306E-03
			7.32		9.9438E-03
			9.15		9.9540E-03
			10.98		9.9634E-03
			12.81		9.9729E-03
			14.64		9.9788E-03
			16.47		9.9858E-03
			18.30		9.9921E-03
			20.13		9.9964E-03
			21.96		10.008E-03
			23.79		10.022E-03
			25.62		10.028E-03
			27.45		10.032E-03
			28.36		10.035E-03
			29.28		10.039E-03
			30.20		10.040E-03
			31.11		10.040E-03
			32.03		10.037E-03
			32.94		10.029E-03
			33.85		10.019E-03
			34.77		10.004E-03
			35.69		9.9904E-03
			36.60		9.9709E-03
			37.51		9.9433E-03
			38.43		9.9127E-03
			39.35		9.8671E-03
			40.26		9.8051E-03
			41.17		9.7161E-03
			42.09		9.5578E-03
			43.01		9.2518E-03
			43.92		8.5793E-03
			44.84		7.1431E-03
			45.75		5.0683E-03
			46.67		3.1667E-03
			47.58		2.0244E-03
			48.50		1.4172E-03
			49.41		1.0812E-03
			50.33		879.49E-06
			51.24		749.52E-06
			52.16		659.16E-06
			53.07		594.62E-06
			53.99		544.42E-06
			54.90		505.76E-06
			55.82		474.74E-06
			56.73		448.50E-06
			57.65		425.73E-06
			58.56		406.58E-06
			59.48		390.62E-06
			64.05		326.69E-06
			68.63		274.74E-06
			73.20		234.31E-06
			77.78		202.36E-06
			82.35		177.07E-06
			86.93		156.90E-06
			91.50		140.69E-06
			96.08		126.77E-06
			100.65		114.12E-06
			105.23		103.59E-06
			109.80		96.108E-06
			114.38		90.397E-06
			118.95		85.054E-06
			123.53		80.056E-06
			128.10		75.425E-06
			132.68		71.141E-06
			137.25		67.399E-06
			141.82		63.835E-06
			146.40		60.623E-06
		END_DATA
	END_SCAN  1
	BEGIN_SCAN  2
		TASK_NAME=tba PDD Profiles
		PROGRAM=tbaScan
		MEAS_DATE=27-May-2015 12:06:26
		LINAC=M2619
		MODALITY=X
		ISOCENTER=1000.00
		INPLANE_AXIS=Solid
		CROSSPLANE_AXIS=MLC
		DEPTH_AXIS=Depth
		INPLANE_AXIS_DIR=TARGET_GUN
		CROSSPLANE_AXIS_DIR=LEFT_RIGHT
		DEPTH_AXIS_DIR=UP_DOWN
		ENERGY=6.00
		NOMINAL_DMAX=15.00
		SSD=900.00
		SCD=450.00
		WEDGE_ANGLE=0.00
		FIELD_INPLANE=100.00
		FIELD_CROSSPLANE=100.00
		FIELD_TYPE=RECTANGULAR
		GANTRY=0.00
		GANTRY_UPRIGHT_POSITION=0
		GANTRY_ROTATION=CW
		COLL_ANGLE=0.00
		COLL_OFFSET_INPLANE=0.00
		COLL_OFFSET_CROSSPLANE=0.00
		SCAN_DEVICE=MP3
		SCAN_DEVICE_SETUP=BARA_TARGET_GUN
		ELECTROMETER=TANDEM
		RANGE_FIELD=AUTO
		RANGE_REFERENCE=AUTO
		DETECTOR=DOSIMETRY_DIODE
		DETECTOR_RADIUS=0.00
		DETECTOR_NAME=PTW 60008 Diode P
		DETECTOR_SN=0000
		DETECTOR_CALIBRATION=5700000.00
		DETECTOR_IS_CALIBRATED=0
		DETECTOR_REFERENCE=THIMBLE_CHAMBER
		DETECTOR_REFERENCE_SUBCODE=SEMIFLEX
		DETECTOR_REFERENCE_RADIUS=2.75
		DETECTOR_REFERENCE_NAME=PTW 31002 Semiflex
		DETECTOR_REFERENCE_SN=0000
		DETECTOR_REFERENCE_IS_CALIBRATED=0
		DETECTOR_REFERENCE_CALIBRATION=250000000.00
		DETECTOR_HV=0.0
		REF_FIELD_DEPTH=100.00
		REF_FIELD_DEFINED=ISOCENTER
		REF_FIELD_INPLANE=100.00
		REF_FIELD_CROSSPLANE=100.00
		REF_SCAN_POSITIONS=-160.00;-155.00;-150.00;-145.00;-140.00;-135.00;-130.00;-125.00;-120.00;-115.00;-110.00;-105.00;-100.00;-95.00;-90.00;-85.00;-80.00;-75.00;-70.00;-65.00;-64.00;-63.00;-62.00;-61.00;-60.00;-59.00;-58.00;-57.00;-56.00;-55.00;-54.00;-53.00;-52.00;-51.00;-50.00;-49.00;-48.00;-47.00;-46.00;-45.00;-44.00;-43.00;-42.00;-41.00;-40.00;-39.00;-38.00;-37.00;-36.00;-35.00;-34.00;-33.00;-32.00;-31.00;-30.00;-28.00;-26.00;-24.00;-22.00;-20.00;-18.00;-16.00;-14.00;-12.00;-10.00;-8.00;-6.00;-4.00;-2.00;0.00;2.00;4.00;6.00;8.00;10.00;12.00;14.00;16.00;18.00;20.00;22.00;24.00;26.00;28.00;30.00;31.00;32.00;33.00;34.00;35.00;36.00;37.00;38.00;39.00;40.00;41.00;42.00;43.00;44.00;45.00;46.00;47.00;48.00;49.00;50.00;51.00;52.00;53.00;54.00;55.00;56.00;57.00;58.00;59.00;60.00;61.00;62.00;63.00;64.00;65.00;70.00;75.00;80.00;85.00;90.00;95.00;100.00;105.00;110.00;115.00;120.00;125.00;130.00;135.00;140.00;145.00;150.00;155.00;160.00;
		REF_OVERSCAN_FACTOR=1.00
		SCAN_CURVETYPE=INPLANE_PROFILE
		SCAN_DEPTH=50.00
		SCAN_OFFAXIS_INPLANE=0.00
		SCAN_OFFAXIS_CROSSPLANE=0.00
		SCAN_ANGLE=0.00
		SCAN_DIAGONAL=NOT_DIAGONAL
		SCAN_DIRECTION=POSITIVE
		MEAS_MEDIUM=WATER
		MEAS_PRESET=MONITOR_TRIGGER
		MEAS_TRIGGER=400
		TIMEOUT=120.00
		EDGE=1
		MEAS_UNIT=cGy/MU
		SCAN_SPEEDS=20.00; 8.00;40.00; 25.00;100.00; 40.00;400.00; 50.00;
		DELAY_TIMES=40.00; 0.500;150.00; 0.000;400.00; 0.000;
		INCLINATION_ANGLE=0.00
		PRESSURE=1013.25
		TEMPERATURE=20.00
		NORM_TEMPERATURE=20.00
		CORRECTION_FACTOR=1.0000
		EXPECTED_MAX_DOSE_RATE=7.00
		CORRECTIONS=SMOOTHED_CORR;SYMMETRY_CORR;
		BEGIN_DATA
			-152.00		64.189E-06
			-147.25		67.755E-06
			-142.50		71.678E-06
			-137.75		76.314E-06
			-133.00		81.128E-06
			-128.25		85.764E-06
			-123.50		91.112E-06
			-118.75		97.709E-06
			-114.00		105.20E-06
			-109.25		114.11E-06
			-104.50		125.53E-06
			-99.75		138.72E-06
			-95.00		153.34E-06
			-90.25		171.53E-06
			-85.50		194.35E-06
			-80.75		222.70E-06
			-76.00		259.61E-06
			-71.25		307.57E-06
			-66.50		369.98E-06
			-61.75		448.55E-06
			-60.80		468.22E-06
			-59.85		491.76E-06
			-58.90		518.86E-06
			-57.95		549.53E-06
			-57.00		584.12E-06
			-56.05		626.74E-06
			-55.10		680.58E-06
			-54.15		748.34E-06
			-53.20		836.78E-06
			-52.25		959.45E-06
			-51.30		1.1410E-03
			-50.35		1.4309E-03
			-49.40		1.9298E-03
			-48.45		2.8491E-03
			-47.50		4.3437E-03
			-46.55		6.0074E-03
			-45.60		7.1673E-03
			-44.65		7.7287E-03
			-43.70		7.9896E-03
			-42.75		8.1354E-03
			-41.80		8.2337E-03
			-40.85		8.3033E-03
			-39.90		8.3532E-03
			-38.95		8.3943E-03
			-38.00		8.4280E-03
			-37.05		8.4537E-03
			-36.10		8.4769E-03
			-35.15		8.4960E-03
			-34.20		8.5100E-03
			-33.25		8.5213E-03
			-32.30		8.5275E-03
			-31.35		8.5336E-03
			-30.40		8.5412E-03
			-29.45		8.5496E-03
			-28.50		8.5576E-03
			-26.60		8.5650E-03
			-24.70		8.5662E-03
			-22.80		8.5610E-03
			-20.90		8.5553E-03
			-19.00		8.5534E-03
			-17.10		8.5470E-03
			-15.20		8.5418E-03
			-13.30		8.5409E-03
			-11.40		8.5404E-03
			-9.50		8.5398E-03
			-7.60		8.5352E-03
			-5.70		8.5315E-03
			-3.80		8.5265E-03
			-1.90		8.5177E-03
			0.00		8.5140E-03
			1.90		8.5177E-03
			3.80		8.5265E-03
			5.70		8.5315E-03
			7.60		8.5352E-03
			9.50		8.5398E-03
			11.40		8.5404E-03
			13.30		8.5409E-03
			15.20		8.5418E-03
			17.10		8.5470E-03
			19.00		8.5534E-03
			20.90		8.5553E-03
			22.80		8.5610E-03
			24.70		8.5662E-03
			26.60		8.5650E-03
			28.50		8.5576E-03
			29.45		8.5496E-03
			30.40		8.5412E-03
			31.35		8.5336E-03
			32.30		8.5275E-03
			33.25		8.5213E-03
			34.20		8.5100E-03
			35.15		8.4960E-03
			36.10		8.4769E-03
			37.05		8.4537E-03
			38.00		8.4280E-03
			38.95		8.3943E-03
			39.90		8.3532E-03
			40.85		8.3033E-03
			41.80		8.2337E-03
			42.75		8.1354E-03
			43.70		7.9896E-03
			44.65		7.7287E-03
			45.60		7.1673E-03
			46.55		6.0074E-03
			47.50		4.3437E-03
			48.45		2.8491E-03
			49.40		1.9298E-03
			50.35		1.4309E-03
			51.30		1.1410E-03
			52.25		959.45E-06
			53.20		836.78E-06
			54.15		748.34E-06
			55.10		680.58E-06
			56.05		626.74E-06
			57.00		584.12E-06
			57.95		549.53E-06
			58.90		518.86E-06
			59.85		491.76E-06
			60.80		468.22E-06
			61.75		448.55E-06
			66.50		369.98E-06
			71.25		307.57E-06
			76.00		259.61E-06
			80.75		222.70E-06
			85.50		194.35E-06
			90.25		171.53E-06
			95.00		153.34E-06
			99.75		138.72E-06
			104.50		125.53E-06
			109.25		114.11E-06
			114.00		105.20E-06
			118.75		97.709E-06
			123.50		91.112E-06
			128.25		85.764E-06
			133.00		81.128E-06
			137.75		76.314E-06
			142.50		71.678E-06
			147.25		67.755E-06
			152.00		64.189E-06
		END_DATA
	END_SCAN  2
	BEGIN_SCAN  3
		TASK_NAME=tba PDD Profiles
		PROGRAM=tbaScan
		MEAS_DATE=27-May-2015 12:06:26
		LINAC=M2619
		MODALITY=X
		ISOCENTER=1000.00
		INPLANE_AXIS=Solid
		CROSSPLANE_AXIS=MLC
		DEPTH_AXIS=Depth
		INPLANE_AXIS_DIR=TARGET_GUN
		CROSSPLANE_AXIS_DIR=LEFT_RIGHT
		DEPTH_AXIS_DIR=UP_DOWN
		ENERGY=6.00
		NOMINAL_DMAX=15.00
		SSD=900.00
		SCD=450.00
		WEDGE_ANGLE=0.00
		FIELD_INPLANE=100.00
		FIELD_CROSSPLANE=100.00
		FIELD_TYPE=RECTANGULAR
		GANTRY=0.00
		GANTRY_UPRIGHT_POSITION=0
		GANTRY_ROTATION=CW
		COLL_ANGLE=0.00
		COLL_OFFSET_INPLANE=0.00
		COLL_OFFSET_CROSSPLANE=0.00
		SCAN_DEVICE=MP3
		SCAN_DEVICE_SETUP=BARA_TARGET_GUN
		ELECTROMETER=TANDEM
		RANGE_FIELD=AUTO
		RANGE_REFERENCE=AUTO
		DETECTOR=DOSIMETRY_DIODE
		DETECTOR_RADIUS=0.00
		DETECTOR_NAME=PTW 60008 Diode P
		DETECTOR_SN=0000
		DETECTOR_CALIBRATION=5700000.00
		DETECTOR_IS_CALIBRATED=0
		DETECTOR_REFERENCE=THIMBLE_CHAMBER
		DETECTOR_REFERENCE_SUBCODE=SEMIFLEX
		DETECTOR_REFERENCE_RADIUS=2.75
		DETECTOR_REFERENCE_NAME=PTW 31002 Semiflex
		DETECTOR_REFERENCE_SN=0000
		DETECTOR_REFERENCE_IS_CALIBRATED=0
		DETECTOR_REFERENCE_CALIBRATION=250000000.00
		DETECTOR_HV=0.0
		REF_FIELD_DEPTH=100.00
		REF_FIELD_DEFINED=ISOCENTER
		REF_FIELD_INPLANE=100.00
		REF_FIELD_CROSSPLANE=100.00
		REF_SCAN_POSITIONS=-160.00;-155.00;-150.00;-145.00;-140.00;-135.00;-130.00;-125.00;-120.00;-115.00;-110.00;-105.00;-100.00;-95.00;-90.00;-85.00;-80.00;-75.00;-70.00;-65.00;-64.00;-63.00;-62.00;-61.00;-60.00;-59.00;-58.00;-57.00;-56.00;-55.00;-54.00;-53.00;-52.00;-51.00;-50.00;-49.00;-48.00;-47.00;-46.00;-45.00;-44.00;-43.00;-42.00;-41.00;-40.00;-39.00;-38.00;-37.00;-36.00;-35.00;-34.00;-33.00;-32.00;-31.00;-30.00;-28.00;-26.00;-24.00;-22.00;-20.00;-18.00;-16.00;-14.00;-12.00;-10.00;-8.00;-6.00;-4.00;-2.00;0.00;2.00;4.00;6.00;8.00;10.00;12.00;14.00;16.00;18.00;20.00;22.00;24.00;26.00;28.00;30.00;31.00;32.00;33.00;34.00;35.00;36.00;37.00;38.00;39.00;40.00;41.00;42.00;43.00;44.00;45.00;46.00;47.00;48.00;49.00;50.00;51.00;52.00;53.00;54.00;55.00;56.00;57.00;58.00;59.00;60.00;61.00;62.00;63.00;64.00;65.00;70.00;75.00;80.00;85.00;90.00;95.00;100.00;105.00;110.00;115.00;120.00;125.00;130.00;135.00;140.00;145.00;150.00;155.00;160.00;
		REF_OVERSCAN_FACTOR=1.00
		SCAN_CURVETYPE=INPLANE_PROFILE
		SCAN_DEPTH=100.00
		SCAN_OFFAXIS_INPLANE=0.00
		SCAN_OFFAXIS_CROSSPLANE=0.00
		SCAN_ANGLE=0.00
		SCAN_DIAGONAL=NOT_DIAGONAL
		SCAN_DIRECTION=POSITIVE
		MEAS_MEDIUM=WATER
		MEAS_PRESET=MONITOR_TRIGGER
		MEAS_TRIGGER=400
		TIMEOUT=120.00
		EDGE=1
		MEAS_UNIT=cGy/MU
		SCAN_SPEEDS=20.00; 8.00;40.00; 25.00;100.00; 40.00;400.00; 50.00;
		DELAY_TIMES=40.00; 0.500;150.00; 0.000;400.00; 0.000;
		INCLINATION_ANGLE=0.00
		PRESSURE=1013.25
		TEMPERATURE=20.00
		NORM_TEMPERATURE=20.00
		CORRECTION_FACTOR=1.0000
		EXPECTED_MAX_DOSE_RATE=7.00
		CORRECTIONS=SMOOTHED_CORR;SYMMETRY_CORR;
		BEGIN_DATA
			-160.00		67.042E-06
			-155.00		71.856E-06
			-150.00		76.670E-06
			-145.00		81.841E-06
			-140.00		87.190E-06
			-135.00		93.074E-06
			-130.00		100.03E-06
			-125.00		108.23E-06
			-120.00		118.22E-06
			-115.00		129.81E-06
			-110.00		142.82E-06
			-105.00		157.80E-06
			-100.00		175.45E-06
			-95.00		197.38E-06
			-90.00		224.49E-06
			-85.00		257.47E-06
			-80.00		298.48E-06
			-75.00		350.01E-06
			-70.00		415.98E-06
			-65.00		497.53E-06
			-64.00		516.55E-06
			-63.00		538.30E-06
			-62.00		563.44E-06
			-61.00		590.72E-06
			-60.00		619.78E-06
			-59.00		655.44E-06
			-58.00		699.66E-06
			-57.00		752.80E-06
			-56.00		822.69E-06
			-55.00		919.51E-06
			-54.00		1.0572E-03
			-53.00		1.2709E-03
			-52.00		1.6384E-03
			-51.00		2.3056E-03
			-50.00		3.3756E-03
			-49.00		4.5678E-03
			-48.00		5.4044E-03
			-47.00		5.8173E-03
			-46.00		6.0170E-03
			-45.00		6.1293E-03
			-44.00		6.2069E-03
			-43.00		6.2663E-03
			-42.00		6.3098E-03
			-41.00		6.3449E-03
			-40.00		6.3729E-03
			-39.00		6.3950E-03
			-38.00		6.4173E-03
			-37.00		6.4380E-03
			-36.00		6.4542E-03
			-35.00		6.4699E-03
			-34.00		6.4842E-03
			-33.00		6.4958E-03
			-32.00		6.5098E-03
			-31.00		6.5221E-03
			-30.00		6.5298E-03
			-28.00		6.5446E-03
			-26.00		6.5566E-03
			-24.00		6.5610E-03
			-22.00		6.5633E-03
			-20.00		6.5674E-03
			-18.00		6.5689E-03
			-16.00		6.5712E-03
			-14.00		6.5758E-03
			-12.00		6.5760E-03
			-10.00		6.5762E-03
			-8.00		6.5808E-03
			-6.00		6.5833E-03
			-4.00		6.5801E-03
			-2.00		6.5778E-03
			0.00		6.5783E-03
			2.00		6.5778E-03
			4.00		6.5801E-03
			6.00		6.5833E-03
			8.00		6.5808E-03
			10.00		6.5762E-03
			12.00		6.5760E-03
			14.00		6.5758E-03
			16.00		6.5712E-03
			18.00		6.5689E-03
			20.00		6.5674E-03
			22.00		6.5633E-03
			24.00		6.5610E-03
			26.00		6.5566E-03
			28.00		6.5446E-03
			30.00		6.5298E-03
			31.00		6.5221E-03
			32.00		6.5098E-03
			33.00		6.4958E-03
			34.00		6.4842E-03
			35.00		6.4699E-03
			36.00		6.4542E-03
			37.00		6.4380E-03
			38.00		6.4173E-03
			39.00		6.3950E-03
			40.00		6.3729E-03
			41.00		6.3449E-03
			42.00		6.3098E-03
			43.00		6.2663E-03
			44.00		6.2069E-03
			45.00		6.1293E-03
			46.00		6.0170E-03
			47.00		5.8173E-03
			48.00		5.4044E-03
			49.00		4.5678E-03
			50.00		3.3756E-03
			51.00		2.3056E-03
			52.00		1.6384E-03
			53.00		1.2709E-03
			54.00		1.0572E-03
			55.00		919.51E-06
			56.00		822.69E-06
			57.00		752.80E-06
			58.00		699.66E-06
			59.00		655.44E-06
			60.00		619.78E-06
			61.00		590.72E-06
			62.00		563.44E-06
			63.00		538.30E-06
			64.00		516.55E-06
			65.00		497.53E-06
			70.00		415.98E-06
			75.00		350.01E-06
			80.00		298.48E-06
			85.00		257.47E-06
			90.00		224.49E-06
			95.00		197.38E-06
			100.00		175.45E-06
			105.00		157.80E-06
			110.00		142.82E-06
			115.00		129.81E-06
			120.00		118.22E-06
			125.00		108.23E-06
			130.00		100.03E-06
			135.00		93.074E-06
			140.00		87.190E-06
			145.00		81.841E-06
			150.00		76.670E-06
			155.00		71.856E-06
			160.00		67.042E-06
		END_DATA
	END_SCAN  3
	BEGIN_SCAN  4
		TASK_NAME=tba PDD Profiles
		PROGRAM=tbaScan
		MEAS_DATE=27-May-2015 12:06:26
		LINAC=M2619
		MODALITY=X
		ISOCENTER=1000.00
		INPLANE_AXIS=Solid
		CROSSPLANE_AXIS=MLC
		DEPTH_AXIS=Depth
		INPLANE_AXIS_DIR=TARGET_GUN
		CROSSPLANE_AXIS_DIR=LEFT_RIGHT
		DEPTH_AXIS_DIR=UP_DOWN
		ENERGY=6.00
		NOMINAL_DMAX=15.00
		SSD=900.00
		SCD=450.00
		WEDGE_ANGLE=0.00
		FIELD_INPLANE=100.00
		FIELD_CROSSPLANE=100.00
		FIELD_TYPE=RECTANGULAR
		GANTRY=0.00
		GANTRY_UPRIGHT_POSITION=0
		GANTRY_ROTATION=CW
		COLL_ANGLE=0.00
		COLL_OFFSET_INPLANE=0.00
		COLL_OFFSET_CROSSPLANE=0.00
		SCAN_DEVICE=MP3
		SCAN_DEVICE_SETUP=BARA_TARGET_GUN
		ELECTROMETER=TANDEM
		RANGE_FIELD=AUTO
		RANGE_REFERENCE=AUTO
		DETECTOR=DOSIMETRY_DIODE
		DETECTOR_RADIUS=0.00
		DETECTOR_NAME=PTW 60008 Diode P
		DETECTOR_SN=0000
		DETECTOR_CALIBRATION=5700000.00
		DETECTOR_IS_CALIBRATED=0
		DETECTOR_REFERENCE=THIMBLE_CHAMBER
		DETECTOR_REFERENCE_SUBCODE=SEMIFLEX
		DETECTOR_REFERENCE_RADIUS=2.75
		DETECTOR_REFERENCE_NAME=PTW 31002 Semiflex
		DETECTOR_REFERENCE_SN=0000
		DETECTOR_REFERENCE_IS_CALIBRATED=0
		DETECTOR_REFERENCE_CALIBRATION=250000000.00
		DETECTOR_HV=0.0
		REF_FIELD_DEPTH=100.00
		REF_FIELD_DEFINED=ISOCENTER
		REF_FIELD_INPLANE=100.00
		REF_FIELD_CROSSPLANE=100.00
		REF_SCAN_POSITIONS=-160.00;-155.00;-150.00;-145.00;-140.00;-135.00;-130.00;-125.00;-120.00;-115.00;-110.00;-105.00;-100.00;-95.00;-90.00;-85.00;-80.00;-75.00;-70.00;-65.00;-64.00;-63.00;-62.00;-61.00;-60.00;-59.00;-58.00;-57.00;-56.00;-55.00;-54.00;-53.00;-52.00;-51.00;-50.00;-49.00;-48.00;-47.00;-46.00;-45.00;-44.00;-43.00;-42.00;-41.00;-40.00;-39.00;-38.00;-37.00;-36.00;-35.00;-34.00;-33.00;-32.00;-31.00;-30.00;-28.00;-26.00;-24.00;-22.00;-20.00;-18.00;-16.00;-14.00;-12.00;-10.00;-8.00;-6.00;-4.00;-2.00;0.00;2.00;4.00;6.00;8.00;10.00;12.00;14.00;16.00;18.00;20.00;22.00;24.00;26.00;28.00;30.00;31.00;32.00;33.00;34.00;35.00;36.00;37.00;38.00;39.00;40.00;41.00;42.00;43.00;44.00;45.00;46.00;47.00;48.00;49.00;50.00;51.00;52.00;53.00;54.00;55.00;56.00;57.00;58.00;59.00;60.00;61.00;62.00;63.00;64.00;65.00;70.00;75.00;80.00;85.00;90.00;95.00;100.00;105.00;110.00;115.00;120.00;125.00;130.00;135.00;140.00;145.00;150.00;155.00;160.00;
		REF_OVERSCAN_FACTOR=1.00
		SCAN_CURVETYPE=INPLANE_PROFILE
		SCAN_DEPTH=200.00
		SCAN_OFFAXIS_INPLANE=0.00
		SCAN_OFFAXIS_CROSSPLANE=0.00
		SCAN_ANGLE=0.00
		SCAN_DIAGONAL=NOT_DIAGONAL
		SCAN_DIRECTION=POSITIVE
		MEAS_MEDIUM=WATER
		MEAS_PRESET=MONITOR_TRIGGER
		MEAS_TRIGGER=400
		TIMEOUT=120.00
		EDGE=1
		MEAS_UNIT=cGy/MU
		SCAN_SPEEDS=20.00; 8.00;40.00; 25.00;100.00; 40.00;400.00; 50.00;
		DELAY_TIMES=40.00; 0.500;150.00; 0.000;400.00; 0.000;
		INCLINATION_ANGLE=0.00
		PRESSURE=1013.25
		TEMPERATURE=20.00
		NORM_TEMPERATURE=20.00
		CORRECTION_FACTOR=1.0000
		EXPECTED_MAX_DOSE_RATE=7.00
		CORRECTIONS=SMOOTHED_CORR;SYMMETRY_CORR;
		BEGIN_DATA
			-176.00		61.336E-06
			-170.50		65.259E-06
			-165.00		70.073E-06
			-159.50		75.601E-06
			-154.00		81.485E-06
			-148.50		87.547E-06
			-143.00		94.323E-06
			-137.50		102.70E-06
			-132.00		112.51E-06
			-126.50		123.39E-06
			-121.00		135.51E-06
			-115.50		149.42E-06
			-110.00		165.82E-06
			-104.50		185.44E-06
			-99.00		208.44E-06
			-93.50		235.18E-06
			-88.00		266.92E-06
			-82.50		305.79E-06
			-77.00		354.11E-06
			-71.50		410.28E-06
			-70.40		422.76E-06
			-69.30		437.20E-06
			-68.20		453.78E-06
			-67.10		472.15E-06
			-66.00		491.76E-06
			-64.90		513.16E-06
			-63.80		538.48E-06
			-62.70		569.14E-06
			-61.60		608.19E-06
			-60.50		660.97E-06
			-59.40		736.21E-06
			-58.30		852.11E-06
			-57.20		1.0477E-03
			-56.10		1.4038E-03
			-55.00		1.9745E-03
			-53.90		2.6098E-03
			-52.80		3.0622E-03
			-51.70		3.2902E-03
			-50.60		3.3985E-03
			-49.50		3.4584E-03
			-48.40		3.5031E-03
			-47.30		3.5401E-03
			-46.20		3.5657E-03
			-45.10		3.5848E-03
			-44.00		3.6021E-03
			-42.90		3.6182E-03
			-41.80		3.6346E-03
			-40.70		3.6506E-03
			-39.60		3.6645E-03
			-38.50		3.6759E-03
			-37.40		3.6861E-03
			-36.30		3.6966E-03
			-35.20		3.7060E-03
			-34.10		3.7135E-03
			-33.00		3.7200E-03
			-30.80		3.7335E-03
			-28.60		3.7460E-03
			-26.40		3.7533E-03
			-24.20		3.7586E-03
			-22.00		3.7656E-03
			-19.80		3.7713E-03
			-17.60		3.7745E-03
			-15.40		3.7797E-03
			-13.20		3.7854E-03
			-11.00		3.7856E-03
			-8.80		3.7847E-03
			-6.60		3.7854E-03
			-4.40		3.7838E-03
			-2.20		3.7816E-03
			0.00		3.7811E-03
			2.20		3.7816E-03
			4.40		3.7838E-03
			6.60		3.7854E-03
			8.80		3.7847E-03
			11.00		3.7856E-03
			13.20		3.7854E-03
			15.40		3.7797E-03
			17.60		3.7745E-03
			19.80		3.7713E-03
			22.00		3.7656E-03
			24.20		3.7586E-03
			26.40		3.7533E-03
			28.60		3.7460E-03
			30.80		3.7335E-03
			33.00		3.7200E-03
			34.10		3.7135E-03
			35.20		3.7060E-03
			36.30		3.6966E-03
			37.40		3.6861E-03
			38.50		3.6759E-03
			39.60		3.6645E-03
			40.70		3.6506E-03
			41.80		3.6346E-03
			42.90		3.6182E-03
			44.00		3.6021E-03
			45.10		3.5848E-03
			46.20		3.5657E-03
			47.30		3.5401E-03
			48.40		3.5031E-03
			49.50		3.4584E-03
			50.60		3.3985E-03
			51.70		3.2902E-03
			52.80		3.0622E-03
			53.90		2.6098E-03
			55.00		1.9745E-03
			56.10		1.4038E-03
			57.20		1.0477E-03
			58.30		852.11E-06
			59.40		736.21E-06
			60.50		660.97E-06
			61.60		608.19E-06
			62.70		569.14E-06
			63.80		538.48E-06
			64.90		513.16E-06
			66.00		491.76E-06
			67.10		472.15E-06
			68.20		453.78E-06
			69.30		437.20E-06
			70.40		422.76E-06
			71.50		410.28E-06
			77.00		354.11E-06
			82.50		305.79E-06
			88.00		266.92E-06
			93.50		235.18E-06
			99.00		208.44E-06
			104.50		185.44E-06
			110.00		165.82E-06
			115.50		149.42E-06
			121.00		135.51E-06
			126.50		123.39E-06
			132.00		112.51E-06
			137.50		102.70E-06
			143.00		94.323E-06
			148.50		87.547E-06
			154.00		81.485E-06
			159.50		75.601E-06
			165.00		70.073E-06
			170.50		65.259E-06
			176.00		61.336E-06
		END_DATA
	END_SCAN  4
	BEGIN_SCAN  5
		TASK_NAME=tba PDD Profiles
		PROGRAM=tbaScan
		COMMENT=With trigger
		MEAS_DATE=22-May-2015 10:25:50
		LINAC=M2619
		MODALITY=X
		ISOCENTER=1000.00
		INPLANE_AXIS=Solid
		CROSSPLANE_AXIS=MLC
		DEPTH_AXIS=Depth
		INPLANE_AXIS_DIR=TARGET_GUN
		CROSSPLANE_AXIS_DIR=LEFT_RIGHT
		DEPTH_AXIS_DIR=UP_DOWN
		ENERGY=6.00
		NOMINAL_DMAX=15.00
		SSD=900.00
		SCD=450.00
		WEDGE_ANGLE=0.00
		FIELD_INPLANE=100.00
		FIELD_CROSSPLANE=100.00
		FIELD_TYPE=RECTANGULAR
		GANTRY=0.00
		GANTRY_UPRIGHT_POSITION=0
		GANTRY_ROTATION=CW
		COLL_ANGLE=0.00
		COLL_OFFSET_INPLANE=0.00
		COLL_OFFSET_CROSSPLANE=0.00
		SCAN_DEVICE=MP3
		SCAN_DEVICE_SETUP=BARA_TARGET_GUN
		ELECTROMETER=TANDEM
		RANGE_FIELD=AUTO
		RANGE_REFERENCE=AUTO
		DETECTOR=THIMBLE_CHAMBER
		DETECTOR_SUBCODE=SEMIFLEX
		DETECTOR_RADIUS=2.75
		DETECTOR_NAME=PTW 31002 Semiflex
		DETECTOR_SN=0000
		DETECTOR_CALIBRATION=250000000.00
		DETECTOR_IS_CALIBRATED=0
		DETECTOR_REFERENCE=THIMBLE_CHAMBER
		DETECTOR_REFERENCE_SUBCODE=SEMIFLEX
		DETECTOR_REFERENCE_RADIUS=2.75
		DETECTOR_REFERENCE_NAME=PTW 31002 Semiflex
		DETECTOR_REFERENCE_SN=0000
		DETECTOR_REFERENCE_IS_CALIBRATED=0
		DETECTOR_REFERENCE_CALIBRATION=250000000.00
		DETECTOR_HV=400.0
		DETECTOR_REFERENCE_HV=300.0
		REF_FIELD_DEPTH=100.00
		REF_FIELD_DEFINED=ISOCENTER
		REF_FIELD_INPLANE=100.00
		REF_FIELD_CROSSPLANE=100.00
		REF_SCAN_POSITIONS=-5.00;-4.00;-3.00;-2.00;-1.00;0.00;1.00;2.00;3.00;4.00;5.00;6.00;7.00;8.00;9.00;10.00;11.00;12.00;13.00;14.00;15.00;16.00;17.00;18.00;19.00;20.00;21.00;22.00;23.00;24.00;25.00;26.00;27.00;28.00;29.00;30.00;31.00;32.00;33.00;34.00;35.00;36.00;37.00;38.00;39.00;40.00;42.50;45.00;47.50;50.00;52.50;55.00;57.50;60.00;65.00;70.00;75.00;80.00;85.00;90.00;95.00;100.00;105.00;110.00;115.00;120.00;125.00;130.00;135.00;140.00;145.00;150.00;155.00;160.00;165.00;170.00;175.00;180.00;185.00;190.00;195.00;200.00;205.00;210.00;215.00;220.00;225.00;230.00;235.00;240.00;245.00;250.00;255.00;260.00;265.00;270.00;275.00;280.00;285.00;290.00;295.00;300.00;305.00;310.00;315.00;320.00;325.00;330.00;335.00;340.00;345.00;350.00;
		SCAN_CURVETYPE=PDD
		SCAN_OFFAXIS_INPLANE=0.00
		SCAN_OFFAXIS_CROSSPLANE=0.00
		SCAN_ANGLE=0.00
		SCAN_DIAGONAL=NOT_DIAGONAL
		SCAN_DIRECTION=NEGATIVE
		MEAS_MEDIUM=WATER
		MEAS_PRESET=MONITOR_TRIGGER
		MEAS_TRIGGER=300
		TIMEOUT=120.00
		EDGE=1
		MEAS_UNIT=cGy/MU
		SCAN_SPEEDS=20.00; 8.00;40.00; 25.00;100.00; 40.00;400.00; 50.00;
		DELAY_TIMES=40.00; 0.500;150.00; 0.000;400.00; 0.000;
		INCLINATION_ANGLE=0.00
		PRESSURE=1013.25
		TEMPERATURE=20.00
		NORM_TEMPERATURE=20.00
		CORRECTION_FACTOR=1.0000
		EXPECTED_MAX_DOSE_RATE=7.00
		CORRECTIONS=SMOOTHED_CORR;MODIFIED_CORR;
		BEGIN_DATA
			0.00		12.503E-03
			1.00		13.561E-03
			2.00		15.052E-03
			3.00		16.855E-03
			4.00		18.610E-03
			5.00		20.077E-03
			6.00		21.183E-03
			7.00		22.024E-03
			8.00		22.625E-03
			9.00		23.106E-03
			10.00		23.443E-03
			11.00		23.707E-03
			12.00		23.876E-03
			13.00		23.972E-03
			14.00		24.044E-03
			15.00		24.044E-03
			16.00		24.020E-03
			17.00		23.996E-03
			18.00		23.948E-03
			19.00		23.876E-03
			20.00		23.780E-03
			21.00		23.683E-03
			22.00		23.587E-03
			23.00		23.491E-03
			24.00		23.395E-03
			25.00		23.299E-03
			26.00		23.202E-03
			27.00		23.106E-03
			28.00		23.010E-03
			29.00		22.890E-03
			30.00		22.770E-03
			31.00		22.673E-03
			32.00		22.553E-03
			33.00		22.433E-03
			34.00		22.337E-03
			35.00		22.241E-03
			36.00		22.145E-03
			37.00		22.048E-03
			38.00		21.928E-03
			39.00		21.808E-03
			40.00		21.688E-03
			42.50		21.423E-03
			45.00		21.159E-03
			47.50		20.894E-03
			50.00		20.654E-03
			52.50		20.389E-03
			55.00		20.125E-03
			57.50		19.860E-03
			60.00		19.620E-03
			65.00		19.115E-03
			70.00		18.634E-03
			75.00		18.177E-03
			80.00		17.696E-03
			85.00		17.240E-03
			90.00		16.783E-03
			95.00		16.326E-03
			100.00		15.893E-03
			105.00		15.460E-03
			110.00		15.027E-03
			115.00		14.619E-03
			120.00		14.234E-03
			125.00		13.849E-03
			130.00		13.465E-03
			135.00		13.104E-03
			140.00		12.743E-03
			145.00		12.407E-03
			150.00		12.070E-03
			155.00		11.733E-03
			160.00		11.397E-03
			165.00		11.084E-03
			170.00		10.772E-03
			175.00		10.483E-03
			180.00		10.195E-03
			185.00		9.9061E-03
			190.00		9.6416E-03
			195.00		9.3772E-03
			200.00		9.1127E-03
			205.00		8.8482E-03
			210.00		8.6078E-03
			215.00		8.3673E-03
			220.00		8.1509E-03
			225.00		7.9345E-03
			230.00		7.7181E-03
			235.00		7.5017E-03
			240.00		7.2853E-03
			245.00		7.0930E-03
			250.00		6.9006E-03
			255.00		6.7083E-03
			260.00		6.5400E-03
			265.00		6.3476E-03
			270.00		6.1793E-03
			275.00		6.0110E-03
			280.00		5.8427E-03
			285.00		5.6984E-03
			290.00		5.5301E-03
			295.00		5.3859E-03
			300.00		5.2416E-03
			305.00		5.0973E-03
			310.00		4.9771E-03
			315.00		4.8328E-03
			320.00		4.7126E-03
			325.00		4.5684E-03
			330.00		4.4481E-03
			335.00		4.3279E-03
			340.00		4.2317E-03
			345.00		4.1115E-03
			350.00		3.9913E-03
		END_DATA
	END_SCAN  5
	BEGIN_SCAN  6
		TASK_NAME=tba PDD Profiles
		PROGRAM=tbaScan
		MEAS_DATE=27-May-2015 12:06:26
		LINAC=M2619
		MODALITY=X
		ISOCENTER=1000.00
		INPLANE_AXIS=Solid
		CROSSPLANE_AXIS=MLC
		DEPTH_AXIS=Depth
		INPLANE_AXIS_DIR=TARGET_GUN
		CROSSPLANE_AXIS_DIR=LEFT_RIGHT
		DEPTH_AXIS_DIR=UP_DOWN
		ENERGY=6.00
		NOMINAL_DMAX=15.00
		SSD=900.00
		SCD=450.00
		WEDGE_ANGLE=0.00
		FIELD_INPLANE=100.00
		FIELD_CROSSPLANE=100.00
		FIELD_TYPE=RECTANGULAR
		GANTRY=0.00
		GANTRY_UPRIGHT_POSITION=0
		GANTRY_ROTATION=CW
		COLL_ANGLE=0.00
		COLL_OFFSET_INPLANE=0.00
		COLL_OFFSET_CROSSPLANE=0.00
		SCAN_DEVICE=MP3
		SCAN_DEVICE_SETUP=BARA_TARGET_GUN
		ELECTROMETER=TANDEM
		RANGE_FIELD=AUTO
		RANGE_REFERENCE=AUTO
		DETECTOR=DOSIMETRY_DIODE
		DETECTOR_RADIUS=0.00
		DETECTOR_NAME=PTW 60008 Diode P
		DETECTOR_SN=0000
		DETECTOR_CALIBRATION=5700000.00
		DETECTOR_IS_CALIBRATED=0
		DETECTOR_REFERENCE=THIMBLE_CHAMBER
		DETECTOR_REFERENCE_SUBCODE=SEMIFLEX
		DETECTOR_REFERENCE_RADIUS=2.75
		DETECTOR_REFERENCE_NAME=PTW 31002 Semiflex
		DETECTOR_REFERENCE_SN=0000
		DETECTOR_REFERENCE_IS_CALIBRATED=0
		DETECTOR_REFERENCE_CALIBRATION=250000000.00
		DETECTOR_HV=0.0
		REF_FIELD_DEPTH=100.00
		REF_FIELD_DEFINED=ISOCENTER
		REF_FIELD_INPLANE=100.00
		REF_FIELD_CROSSPLANE=100.00
