BEGIN_SCAN_DATA
	FORMAT=CC-Export V1.9
	FILE_CREATION_DATE=18-Sep-2015 10:26:25
	LAST_MODIFIED=18-Sep-2015 10:26:25
	BEGIN_SCAN  1
		TASK_NAME=tba PDD Profiles
		PROGRAM=tbaScan
		MEAS_DATE=27-May-2015 12:53:51
		LINAC=M2619
		MODALITY=X
		ISOCENTER=1000.00
		INPLANE_AXIS=Solid
		CROSSPLANE_AXIS=MLC
		DEPTH_AXIS=Depth
		INPLANE_AXIS_DIR=TARGET_GUN
		CROSSPLANE_AXIS_DIR=LEFT_RIGHT
		DEPTH_AXIS_DIR=UP_DOWN
		ENERGY=6.00
		NOMINAL_DMAX=15.00
		SSD=900.00
		SCD=450.00
		WEDGE_ANGLE=0.00
		FIELD_INPLANE=50.00
		FIELD_CROSSPLANE=50.00
		FIELD_TYPE=RECTANGULAR
		GANTRY=0.00
		GANTRY_UPRIGHT_POSITION=0
		GANTRY_ROTATION=CW
		COLL_ANGLE=0.00
		COLL_OFFSET_INPLANE=0.00
		COLL_OFFSET_CROSSPLANE=0.00
		SCAN_DEVICE=MP3
		SCAN_DEVICE_SETUP=BARA_TARGET_GUN
		ELECTROMETER=TANDEM
		RANGE_FIELD=AUTO
		RANGE_REFERENCE=AUTO
		DETECTOR=DOSIMETRY_DIODE
		DETECTOR_RADIUS=0.00
		DETECTOR_NAME=PTW 60008 Diode P
		DETECTOR_SN=0000
		DETECTOR_CALIBRATION=5700000.00
		DETECTOR_IS_CALIBRATED=0
		DETECTOR_REFERENCE=THIMBLE_CHAMBER
		DETECTOR_REFERENCE_SUBCODE=SEMIFLEX
		DETECTOR_REFERENCE_RADIUS=2.75
		DETECTOR_REFERENCE_NAME=PTW 31002 Semiflex
		DETECTOR_REFERENCE_SN=0000
		DETECTOR_REFERENCE_IS_CALIBRATED=0
		DETECTOR_REFERENCE_CALIBRATION=250000000.00
		DETECTOR_HV=0.0
		REF_FIELD_DEPTH=100.00
		REF_FIELD_DEFINED=ISOCENTER
		REF_FIELD_INPLANE=100.00
		REF_FIELD_CROSSPLANE=100.00
		REF_SCAN_POSITIONS=-160.00;-155.00;-150.00;-145.00;-140.00;-135.00;-130.00;-125.00;-120.00;-115.00;-110.00;-105.00;-100.00;-95.00;-90.00;-85.00;-80.00;-75.00;-70.00;-65.00;-64.00;-63.00;-62.00;-61.00;-60.00;-59.00;-58.00;-57.00;-56.00;-55.00;-54.00;-53.00;-52.00;-51.00;-50.00;-49.00;-48.00;-47.00;-46.00;-45.00;-44.00;-43.00;-42.00;-41.00;-40.00;-39.00;-38.00;-37.00;-36.00;-35.00;-34.00;-33.00;-32.00;-31.00;-30.00;-28.00;-26.00;-24.00;-22.00;-20.00;-18.00;-16.00;-14.00;-12.00;-10.00;-8.00;-6.00;-4.00;-2.00;0.00;2.00;4.00;6.00;8.00;10.00;12.00;14.00;16.00;18.00;20.00;22.00;24.00;26.00;28.00;30.00;31.00;32.00;33.00;34.00;35.00;36.00;37.00;38.00;39.00;40.00;41.00;42.00;43.00;44.00;45.00;46.00;47.00;48.00;49.00;50.00;51.00;52.00;53.00;54.00;55.00;56.00;57.00;58.00;59.00;60.00;61.00;62.00;63.00;64.00;65.00;70.00;75.00;80.00;85.00;90.00;95.00;100.00;105.00;110.00;115.00;120.00;125.00;130.00;135.00;140.00;145.00;150.00;155.00;160.00;
		REF_OVERSCAN_FACTOR=1.00
		SCAN_CURVETYPE=CROSSPLANE_PROFILE
		SCAN_DEPTH=15.00
		SCAN_OFFAXIS_INPLANE=0.00
		SCAN_OFFAXIS_CROSSPLANE=0.00
		SCAN_ANGLE=0.00
		SCAN_DIAGONAL=NOT_DIAGONAL
		SCAN_DIRECTION=POSITIVE
		MEAS_MEDIUM=WATER
		MEAS_PRESET=MONITOR_TRIGGER
		MEAS_TRIGGER=400
		TIMEOUT=120.00
		EDGE=1
		MEAS_UNIT=cGy/MU
		SCAN_SPEEDS=20.00; 8.00;40.00; 25.00;100.00; 40.00;400.00; 50.00;
		DELAY_TIMES=40.00; 0.500;150.00; 0.000;400.00; 0.000;
		INCLINATION_ANGLE=0.00
		PRESSURE=1013.25
		TEMPERATURE=20.00
		NORM_TEMPERATURE=20.00
		CORRECTION_FACTOR=1.0000
		EXPECTED_MAX_DOSE_RATE=7.00
		CORRECTIONS=SMOOTHED_CORR;SYMMETRY_CORR;
		BEGIN_DATA
			-123.53		38.513E-06
			-118.95		41.725E-06
			-114.38		45.643E-06
			-109.80		49.927E-06
			-105.23		54.380E-06
			-100.65		59.199E-06
			-96.08		64.186E-06
			-91.50		69.541E-06
			-86.93		76.488E-06
			-82.35		85.234E-06
			-77.78		94.139E-06
			-73.20		103.06E-06
			-68.63		113.40E-06
			-64.05		126.25E-06
			-59.48		141.56E-06
			-54.90		159.41E-06
			-50.33		181.32E-06
			-45.75		209.69E-06
			-41.17		248.76E-06
			-36.60		301.18E-06
			-35.69		315.91E-06
			-34.77		335.39E-06
			-33.85		357.92E-06
			-32.94		385.31E-06
			-32.03		421.75E-06
			-31.11		469.79E-06
			-30.20		532.75E-06
			-29.28		623.70E-06
			-28.36		761.45E-06
			-27.45		978.32E-06
			-26.53		1.3346E-03
			-25.62		1.8937E-03
			-24.70		2.7329E-03
			-23.79		3.8492E-03
			-22.88		5.1622E-03
			-21.96		6.4849E-03
			-21.05		7.5760E-03
			-20.13		8.3598E-03
			-19.22		8.8491E-03
			-18.30		9.1318E-03
			-17.39		9.2816E-03
			-16.47		9.3668E-03
			-15.56		9.4111E-03
			-14.64		9.4280E-03
			-13.73		9.4439E-03
			-12.81		9.4680E-03
			-11.90		9.4841E-03
			-10.98		9.4922E-03
			-10.07		9.4939E-03
			-9.15		9.4943E-03
			-8.24		9.4978E-03
			-7.32		9.4961E-03
			-6.41		9.4930E-03
			-5.49		9.4939E-03
			-4.58		9.4903E-03
			-2.75		9.4797E-03
			-0.92		9.4817E-03
			0.00		9.4836E-03
			0.92		9.4817E-03
			2.75		9.4797E-03
			4.58		9.4903E-03
			5.49		9.4939E-03
			6.41		9.4930E-03
			7.32		9.4961E-03
			8.24		9.4978E-03
			9.15		9.4943E-03
			10.07		9.4939E-03
			10.98		9.4922E-03
			11.90		9.4841E-03
			12.81		9.4680E-03
			13.73		9.4439E-03
			14.64		9.4280E-03
			15.56		9.4111E-03
			16.47		9.3668E-03
			17.39		9.2816E-03
			18.30		9.1318E-03
			19.22		8.8491E-03
			20.13		8.3598E-03
			21.05		7.5760E-03
			21.96		6.4849E-03
			22.88		5.1622E-03
			23.79		3.8492E-03
			24.70		2.7329E-03
			25.62		1.8937E-03
			26.53		1.3346E-03
			27.45		978.32E-06
			28.36		761.45E-06
			29.28		623.70E-06
			30.20		532.75E-06
			31.11		469.79E-06
			32.03		421.75E-06
			32.94		385.31E-06
			33.85		357.92E-06
			34.77		335.39E-06
			35.69		315.91E-06
			36.60		301.18E-06
			41.17		248.76E-06
			45.75		209.69E-06
			50.33		181.32E-06
			54.90		159.41E-06
			59.48		141.56E-06
			64.05		126.25E-06
			68.63		113.40E-06
			73.20		103.06E-06
			77.78		94.139E-06
			82.35		85.234E-06
			86.93		76.488E-06
			91.50		69.541E-06
			96.08		64.186E-06
			100.65		59.199E-06
			105.23		54.380E-06
			109.80		49.927E-06
			114.38		45.643E-06
			118.95		41.725E-06
			123.53		38.513E-06
		END_DATA
	END_SCAN  1
	BEGIN_SCAN  2
		TASK_NAME=tba PDD Profiles
		PROGRAM=tbaScan
		MEAS_DATE=27-May-2015 12:53:51
		LINAC=M2619
		MODALITY=X
		ISOCENTER=1000.00
		INPLANE_AXIS=Solid
		CROSSPLANE_AXIS=MLC
		DEPTH_AXIS=Depth
		INPLANE_AXIS_DIR=TARGET_GUN
		CROSSPLANE_AXIS_DIR=LEFT_RIGHT
		DEPTH_AXIS_DIR=UP_DOWN
		ENERGY=6.00
		NOMINAL_DMAX=15.00
		SSD=900.00
		SCD=450.00
		WEDGE_ANGLE=0.00
		FIELD_INPLANE=50.00
		FIELD_CROSSPLANE=50.00
		FIELD_TYPE=RECTANGULAR
		GANTRY=0.00
		GANTRY_UPRIGHT_POSITION=0
		GANTRY_ROTATION=CW
		COLL_ANGLE=0.00
		COLL_OFFSET_INPLANE=0.00
		COLL_OFFSET_CROSSPLANE=0.00
		SCAN_DEVICE=MP3
		SCAN_DEVICE_SETUP=BARA_TARGET_GUN
		ELECTROMETER=TANDEM
		RANGE_FIELD=AUTO
		RANGE_REFERENCE=AUTO
		DETECTOR=DOSIMETRY_DIODE
		DETECTOR_RADIUS=0.00
		DETECTOR_NAME=PTW 60008 Diode P
		DETECTOR_SN=0000
		DETECTOR_CALIBRATION=5700000.00
		DETECTOR_IS_CALIBRATED=0
		DETECTOR_REFERENCE=THIMBLE_CHAMBER
		DETECTOR_REFERENCE_SUBCODE=SEMIFLEX
		DETECTOR_REFERENCE_RADIUS=2.75
		DETECTOR_REFERENCE_NAME=PTW 31002 Semiflex
		DETECTOR_REFERENCE_SN=0000
		DETECTOR_REFERENCE_IS_CALIBRATED=0
		DETECTOR_REFERENCE_CALIBRATION=250000000.00
		DETECTOR_HV=0.0
		REF_FIELD_DEPTH=100.00
		REF_FIELD_DEFINED=ISOCENTER
		REF_FIELD_INPLANE=100.00
		REF_FIELD_CROSSPLANE=100.00
		REF_SCAN_POSITIONS=-160.00;-155.00;-150.00;-145.00;-140.00;-135.00;-130.00;-125.00;-120.00;-115.00;-110.00;-105.00;-100.00;-95.00;-90.00;-85.00;-80.00;-75.00;-70.00;-65.00;-64.00;-63.00;-62.00;-61.00;-60.00;-59.00;-58.00;-57.00;-56.00;-55.00;-54.00;-53.00;-52.00;-51.00;-50.00;-49.00;-48.00;-47.00;-46.00;-45.00;-44.00;-43.00;-42.00;-41.00;-40.00;-39.00;-38.00;-37.00;-36.00;-35.00;-34.00;-33.00;-32.00;-31.00;-30.00;-28.00;-26.00;-24.00;-22.00;-20.00;-18.00;-16.00;-14.00;-12.00;-10.00;-8.00;-6.00;-4.00;-2.00;0.00;2.00;4.00;6.00;8.00;10.00;12.00;14.00;16.00;18.00;20.00;22.00;24.00;26.00;28.00;30.00;31.00;32.00;33.00;34.00;35.00;36.00;37.00;38.00;39.00;40.00;41.00;42.00;43.00;44.00;45.00;46.00;47.00;48.00;49.00;50.00;51.00;52.00;53.00;54.00;55.00;56.00;57.00;58.00;59.00;60.00;61.00;62.00;63.00;64.00;65.00;70.00;75.00;80.00;85.00;90.00;95.00;100.00;105.00;110.00;115.00;120.00;125.00;130.00;135.00;140.00;145.00;150.00;155.00;160.00;
		REF_OVERSCAN_FACTOR=1.00
		SCAN_CURVETYPE=CROSSPLANE_PROFILE
		SCAN_DEPTH=50.00
		SCAN_OFFAXIS_INPLANE=0.00
		SCAN_OFFAXIS_CROSSPLANE=0.00
		SCAN_ANGLE=0.00
		SCAN_DIAGONAL=NOT_DIAGONAL
		SCAN_DIRECTION=POSITIVE
		MEAS_MEDIUM=WATER
		MEAS_PRESET=MONITOR_TRIGGER
		MEAS_TRIGGER=400
		TIMEOUT=120.00
		EDGE=1
		MEAS_UNIT=cGy/MU
		SCAN_SPEEDS=20.00; 8.00;40.00; 25.00;100.00; 40.00;400.00; 50.00;
		DELAY_TIMES=40.00; 0.500;150.00; 0.000;400.00; 0.000;
		INCLINATION_ANGLE=0.00
		PRESSURE=1013.25
		TEMPERATURE=20.00
		NORM_TEMPERATURE=20.00
		CORRECTION_FACTOR=1.0000
		EXPECTED_MAX_DOSE_RATE=7.00
		CORRECTIONS=SMOOTHED_CORR;SYMMETRY_CORR;
		BEGIN_DATA
			-128.25		35.661E-06
			-123.50		38.513E-06
			-118.75		41.723E-06
			-114.00		45.467E-06
			-109.25		49.390E-06
			-104.50		53.313E-06
			-99.75		57.592E-06
			-95.00		62.763E-06
			-90.25		69.360E-06
			-85.50		77.562E-06
			-80.75		86.120E-06
			-76.00		94.679E-06
			-71.25		105.20E-06
			-66.50		118.57E-06
			-61.75		134.26E-06
			-57.00		153.52E-06
			-52.25		178.66E-06
			-47.50		211.65E-06
			-42.75		258.18E-06
			-38.00		321.96E-06
			-37.05		339.31E-06
			-36.10		361.42E-06
			-35.15		387.27E-06
			-34.20		418.12E-06
			-33.25		456.28E-06
			-32.30		505.31E-06
			-31.35		569.50E-06
			-30.40		656.34E-06
			-29.45		782.39E-06
			-28.50		975.67E-06
			-27.55		1.2784E-03
			-26.60		1.7465E-03
			-25.65		2.4264E-03
			-24.70		3.3254E-03
			-23.75		4.3765E-03
			-22.80		5.4233E-03
			-21.85		6.3019E-03
			-20.90		6.9392E-03
			-19.95		7.3504E-03
			-19.00		7.5929E-03
			-18.05		7.7334E-03
			-17.10		7.8163E-03
			-16.15		7.8667E-03
			-15.20		7.9020E-03
			-14.25		7.9298E-03
			-13.30		7.9505E-03
			-12.35		7.9618E-03
			-11.40		7.9718E-03
			-10.45		7.9842E-03
			-9.50		7.9946E-03
			-8.55		8.0017E-03
			-7.60		8.0067E-03
			-6.65		8.0106E-03
			-5.70		8.0160E-03
			-4.75		8.0197E-03
			-2.85		8.0174E-03
			-0.95		8.0137E-03
			0.00		8.0130E-03
			0.95		8.0137E-03
			2.85		8.0174E-03
			4.75		8.0197E-03
			5.70		8.0160E-03
			6.65		8.0106E-03
			7.60		8.0067E-03
			8.55		8.0017E-03
			9.50		7.9946E-03
			10.45		7.9842E-03
			11.40		7.9718E-03
			12.35		7.9618E-03
			13.30		7.9505E-03
			14.25		7.9298E-03
			15.20		7.9020E-03
			16.15		7.8667E-03
			17.10		7.8163E-03
			18.05		7.7334E-03
			19.00		7.5929E-03
			19.95		7.3504E-03
			20.90		6.9392E-03
			21.85		6.3019E-03
			22.80		5.4233E-03
			23.75		4.3765E-03
			24.70		3.3254E-03
			25.65		2.4264E-03
			26.60		1.7465E-03
			27.55		1.2784E-03
			28.50		975.67E-06
			29.45		782.39E-06
			30.40		656.34E-06
			31.35		569.50E-06
			32.30		505.31E-06
			33.25		456.28E-06
			34.20		418.12E-06
			35.15		387.27E-06
			36.10		361.42E-06
			37.05		339.31E-06
			38.00		321.96E-06
			42.75		258.18E-06
			47.50		211.65E-06
			52.25		178.66E-06
			57.00		153.52E-06
			61.75		134.26E-06
			66.50		118.57E-06
			71.25		105.20E-06
			76.00		94.679E-06
			80.75		86.120E-06
			85.50		77.562E-06
			90.25		69.360E-06
			95.00		62.763E-06
			99.75		57.592E-06
			104.50		53.313E-06
			109.25		49.390E-06
			114.00		45.467E-06
			118.75		41.723E-06
			123.50		38.513E-06
			128.25		35.661E-06
		END_DATA
	END_SCAN  2
	BEGIN_SCAN  3
		TASK_NAME=tba PDD Profiles
		PROGRAM=tbaScan
		MEAS_DATE=27-May-2015 12:53:51
		LINAC=M2619
		MODALITY=X
		ISOCENTER=1000.00
		INPLANE_AXIS=Solid
		CROSSPLANE_AXIS=MLC
		DEPTH_AXIS=Depth
		INPLANE_AXIS_DIR=TARGET_GUN
		CROSSPLANE_AXIS_DIR=LEFT_RIGHT
		DEPTH_AXIS_DIR=UP_DOWN
		ENERGY=6.00
		NOMINAL_DMAX=15.00
		SSD=900.00
		SCD=450.00
		WEDGE_ANGLE=0.00
		FIELD_INPLANE=50.00
		FIELD_CROSSPLANE=50.00
		FIELD_TYPE=RECTANGULAR
		GANTRY=0.00
		GANTRY_UPRIGHT_POSITION=0
		GANTRY_ROTATION=CW
		COLL_ANGLE=0.00
		COLL_OFFSET_INPLANE=0.00
		COLL_OFFSET_CROSSPLANE=0.00
		SCAN_DEVICE=MP3
		SCAN_DEVICE_SETUP=BARA_TARGET_GUN
		ELECTROMETER=TANDEM
		RANGE_FIELD=AUTO
		RANGE_REFERENCE=AUTO
		DETECTOR=DOSIMETRY_DIODE
		DETECTOR_RADIUS=0.00
		DETECTOR_NAME=PTW 60008 Diode P
		DETECTOR_SN=0000
		DETECTOR_CALIBRATION=5700000.00
		DETECTOR_IS_CALIBRATED=0
		DETECTOR_REFERENCE=THIMBLE_CHAMBER
		DETECTOR_REFERENCE_SUBCODE=SEMIFLEX
		DETECTOR_REFERENCE_RADIUS=2.75
		DETECTOR_REFERENCE_NAME=PTW 31002 Semiflex
		DETECTOR_REFERENCE_SN=0000
		DETECTOR_REFERENCE_IS_CALIBRATED=0
		DETECTOR_REFERENCE_CALIBRATION=250000000.00
		DETECTOR_HV=0.0
		REF_FIELD_DEPTH=100.00
		REF_FIELD_DEFINED=ISOCENTER
		REF_FIELD_INPLANE=100.00
		REF_FIELD_CROSSPLANE=100.00
		REF_SCAN_POSITIONS=-160.00;-155.00;-150.00;-145.00;-140.00;-135.00;-130.00;-125.00;-120.00;-115.00;-110.00;-105.00;-100.00;-95.00;-90.00;-85.00;-80.00;-75.00;-70.00;-65.00;-64.00;-63.00;-62.00;-61.00;-60.00;-59.00;-58.00;-57.00;-56.00;-55.00;-54.00;-53.00;-52.00;-51.00;-50.00;-49.00;-48.00;-47.00;-46.00;-45.00;-44.00;-43.00;-42.00;-41.00;-40.00;-39.00;-38.00;-37.00;-36.00;-35.00;-34.00;-33.00;-32.00;-31.00;-30.00;-28.00;-26.00;-24.00;-22.00;-20.00;-18.00;-16.00;-14.00;-12.00;-10.00;-8.00;-6.00;-4.00;-2.00;0.00;2.00;4.00;6.00;8.00;10.00;12.00;14.00;16.00;18.00;20.00;22.00;24.00;26.00;28.00;30.00;31.00;32.00;33.00;34.00;35.00;36.00;37.00;38.00;39.00;40.00;41.00;42.00;43.00;44.00;45.00;46.00;47.00;48.00;49.00;50.00;51.00;52.00;53.00;54.00;55.00;56.00;57.00;58.00;59.00;60.00;61.00;62.00;63.00;64.00;65.00;70.00;75.00;80.00;85.00;90.00;95.00;100.00;105.00;110.00;115.00;120.00;125.00;130.00;135.00;140.00;145.00;150.00;155.00;160.00;
		REF_OVERSCAN_FACTOR=1.00
		SCAN_CURVETYPE=CROSSPLANE_PROFILE
		SCAN_DEPTH=100.00
		SCAN_OFFAXIS_INPLANE=0.00
		SCAN_OFFAXIS_CROSSPLANE=0.00
		SCAN_ANGLE=0.00
		SCAN_DIAGONAL=NOT_DIAGONAL
		SCAN_DIRECTION=POSITIVE
		MEAS_MEDIUM=WATER
		MEAS_PRESET=MONITOR_TRIGGER
		MEAS_TRIGGER=400
		TIMEOUT=120.00
		EDGE=1
		MEAS_UNIT=cGy/MU
		SCAN_SPEEDS=20.00; 8.00;40.00; 25.00;100.00; 40.00;400.00; 50.00;
		DELAY_TIMES=40.00; 0.500;150.00; 0.000;400.00; 0.000;
		INCLINATION_ANGLE=0.00
		PRESSURE=1013.25
		TEMPERATURE=20.00
		NORM_TEMPERATURE=20.00
		CORRECTION_FACTOR=1.0000
		EXPECTED_MAX_DOSE_RATE=7.00
		CORRECTIONS=SMOOTHED_CORR;SYMMETRY_CORR;
		BEGIN_DATA
			-135.00		32.808E-06
			-130.00		35.839E-06
			-125.00		39.048E-06
			-120.00		42.079E-06
			-115.00		45.646E-06
			-110.00		50.103E-06
			-105.00		54.382E-06
			-100.00		59.018E-06
			-95.00		65.437E-06
			-90.00		73.461E-06
			-85.00		82.198E-06
			-80.00		91.648E-06
			-75.00		102.70E-06
			-70.00		116.25E-06
			-65.00		133.01E-06
			-60.00		154.05E-06
			-55.00		180.62E-06
			-50.00		213.96E-06
			-45.00		259.25E-06
			-40.00		320.47E-06
			-39.00		336.28E-06
			-38.00		355.00E-06
			-37.00		376.58E-06
			-36.00		403.14E-06
			-35.00		435.42E-06
			-34.00		474.11E-06
			-33.00		524.03E-06
			-32.00		592.32E-06
			-31.00		689.32E-06
			-30.00		835.35E-06
			-29.00		1.0607E-03
			-28.00		1.4015E-03
			-27.00		1.8913E-03
			-26.00		2.5362E-03
			-25.00		3.2842E-03
			-24.00		4.0277E-03
			-23.00		4.6577E-03
			-22.00		5.1196E-03
			-21.00		5.4213E-03
			-20.00		5.6058E-03
			-19.00		5.7148E-03
			-18.00		5.7785E-03
			-17.00		5.8214E-03
			-16.00		5.8531E-03
			-15.00		5.8742E-03
			-14.00		5.8897E-03
			-13.00		5.9033E-03
			-12.00		5.9138E-03
			-11.00		5.9213E-03
			-10.00		5.9272E-03
			-9.00		5.9336E-03
			-8.00		5.9398E-03
			-7.00		5.9457E-03
			-6.00		5.9507E-03
			-5.00		5.9531E-03
			-3.00		5.9553E-03
			-1.00		5.9571E-03
			0.00		5.9575E-03
			1.00		5.9571E-03
			3.00		5.9553E-03
			5.00		5.9531E-03
			6.00		5.9507E-03
			7.00		5.9457E-03
			8.00		5.9398E-03
			9.00		5.9336E-03
			10.00		5.9272E-03
			11.00		5.9213E-03
			12.00		5.9138E-03
			13.00		5.9033E-03
			14.00		5.8897E-03
			15.00		5.8742E-03
			16.00		5.8531E-03
			17.00		5.8214E-03
			18.00		5.7785E-03
			19.00		5.7148E-03
			20.00		5.6058E-03
			21.00		5.4213E-03
			22.00		5.1196E-03
			23.00		4.6577E-03
			24.00		4.0277E-03
			25.00		3.2842E-03
			26.00		2.5362E-03
			27.00		1.8913E-03
			28.00		1.4015E-03
			29.00		1.0607E-03
			30.00		835.35E-06
			31.00		689.32E-06
			32.00		592.32E-06
			33.00		524.03E-06
			34.00		474.11E-06
			35.00		435.42E-06
			36.00		403.14E-06
			37.00		376.58E-06
			38.00		355.00E-06
			39.00		336.28E-06
			40.00		320.47E-06
			45.00		259.25E-06
			50.00		213.96E-06
			55.00		180.62E-06
			60.00		154.05E-06
			65.00		133.01E-06
			70.00		116.25E-06
			75.00		102.70E-06
			80.00		91.648E-06
			85.00		82.198E-06
			90.00		73.461E-06
			95.00		65.437E-06
			100.00		59.018E-06
			105.00		54.382E-06
			110.00		50.103E-06
			115.00		45.646E-06
			120.00		42.079E-06
			125.00		39.048E-06
			130.00		35.839E-06
			135.00		32.808E-06
		END_DATA
	END_SCAN  3
	BEGIN_SCAN  4
		TASK_NAME=tba PDD Profiles
		PROGRAM=tbaScan
		MEAS_DATE=27-May-2015 12:53:51
		LINAC=M2619
		MODALITY=X
		ISOCENTER=1000.00
		INPLANE_AXIS=Solid
		CROSSPLANE_AXIS=MLC
		DEPTH_AXIS=Depth
		INPLANE_AXIS_DIR=TARGET_GUN
		CROSSPLANE_AXIS_DIR=LEFT_RIGHT
		DEPTH_AXIS_DIR=UP_DOWN
		ENERGY=6.00
		NOMINAL_DMAX=15.00
		SSD=900.00
		SCD=450.00
		WEDGE_ANGLE=0.00
		FIELD_INPLANE=50.00
		FIELD_CROSSPLANE=50.00
		FIELD_TYPE=RECTANGULAR
		GANTRY=0.00
		GANTRY_UPRIGHT_POSITION=0
		GANTRY_ROTATION=CW
		COLL_ANGLE=0.00
		COLL_OFFSET_INPLANE=0.00
		COLL_OFFSET_CROSSPLANE=0.00
		SCAN_DEVICE=MP3
		SCAN_DEVICE_SETUP=BARA_TARGET_GUN
		ELECTROMETER=TANDEM
		RANGE_FIELD=AUTO
		RANGE_REFERENCE=AUTO
		DETECTOR=DOSIMETRY_DIODE
		DETECTOR_RADIUS=0.00
		DETECTOR_NAME=PTW 60008 Diode P
		DETECTOR_SN=0000
		DETECTOR_CALIBRATION=5700000.00
		DETECTOR_IS_CALIBRATED=0
		DETECTOR_REFERENCE=THIMBLE_CHAMBER
		DETECTOR_REFERENCE_SUBCODE=SEMIFLEX
		DETECTOR_REFERENCE_RADIUS=2.75
		DETECTOR_REFERENCE_NAME=PTW 31002 Semiflex
		DETECTOR_REFERENCE_SN=0000
		DETECTOR_REFERENCE_IS_CALIBRATED=0
		DETECTOR_REFERENCE_CALIBRATION=250000000.00
		DETECTOR_HV=0.0
		REF_FIELD_DEPTH=100.00
		REF_FIELD_DEFINED=ISOCENTER
		REF_FIELD_INPLANE=100.00
		REF_FIELD_CROSSPLANE=100.00
		REF_SCAN_POSITIONS=-160.00;-155.00;-150.00;-145.00;-140.00;-135.00;-130.00;-125.00;-120.00;-115.00;-110.00;-105.00;-100.00;-95.00;-90.00;-85.00;-80.00;-75.00;-70.00;-65.00;-64.00;-63.00;-62.00;-61.00;-60.00;-59.00;-58.00;-57.00;-56.00;-55.00;-54.00;-53.00;-52.00;-51.00;-50.00;-49.00;-48.00;-47.00;-46.00;-45.00;-44.00;-43.00;-42.00;-41.00;-40.00;-39.00;-38.00;-37.00;-36.00;-35.00;-34.00;-33.00;-32.00;-31.00;-30.00;-28.00;-26.00;-24.00;-22.00;-20.00;-18.00;-16.00;-14.00;-12.00;-10.00;-8.00;-6.00;-4.00;-2.00;0.00;2.00;4.00;6.00;8.00;10.00;12.00;14.00;16.00;18.00;20.00;22.00;24.00;26.00;28.00;30.00;31.00;32.00;33.00;34.00;35.00;36.00;37.00;38.00;39.00;40.00;41.00;42.00;43.00;44.00;45.00;46.00;47.00;48.00;49.00;50.00;51.00;52.00;53.00;54.00;55.00;56.00;57.00;58.00;59.00;60.00;61.00;62.00;63.00;64.00;65.00;70.00;75.00;80.00;85.00;90.00;95.00;100.00;105.00;110.00;115.00;120.00;125.00;130.00;135.00;140.00;145.00;150.00;155.00;160.00;
		REF_OVERSCAN_FACTOR=1.00
		SCAN_CURVETYPE=CROSSPLANE_PROFILE
		SCAN_DEPTH=200.00
		SCAN_OFFAXIS_INPLANE=0.00
		SCAN_OFFAXIS_CROSSPLANE=0.00
		SCAN_ANGLE=0.00
		SCAN_DIAGONAL=NOT_DIAGONAL
		SCAN_DIRECTION=POSITIVE
		MEAS_MEDIUM=WATER
		MEAS_PRESET=MONITOR_TRIGGER
		MEAS_TRIGGER=400
		TIMEOUT=120.00
		EDGE=1
		MEAS_UNIT=cGy/MU
		SCAN_SPEEDS=20.00; 8.00;40.00; 25.00;100.00; 40.00;400.00; 50.00;
		DELAY_TIMES=40.00; 0.500;150.00; 0.000;400.00; 0.000;
		INCLINATION_ANGLE=0.00
		PRESSURE=1013.25
		TEMPERATURE=20.00
		NORM_TEMPERATURE=20.00
		CORRECTION_FACTOR=1.0000
		EXPECTED_MAX_DOSE_RATE=7.00
		CORRECTIONS=SMOOTHED_CORR;SYMMETRY_CORR;
		BEGIN_DATA
			-148.50		27.102E-06
			-143.00		28.707E-06
			-137.50		30.846E-06
			-132.00		33.521E-06
			-126.50		36.552E-06
			-121.00		40.118E-06
			-115.50		44.041E-06
			-110.00		48.142E-06
			-104.50		53.134E-06
			-99.00		59.375E-06
			-93.50		66.329E-06
			-88.00		73.996E-06
			-82.50		83.090E-06
			-77.00		93.966E-06
			-71.50		106.63E-06
			-66.00		121.78E-06
			-60.50		140.50E-06
			-55.00		163.50E-06
			-49.50		193.28E-06
			-44.00		231.50E-06
			-42.90		241.24E-06
			-41.80		253.01E-06
			-40.70		266.20E-06
			-39.60		281.54E-06
			-38.50		299.90E-06
			-37.40		322.01E-06
			-36.30		350.36E-06
			-35.20		389.41E-06
			-34.10		444.87E-06
			-33.00		526.89E-06
			-31.90		651.34E-06
			-30.80		835.88E-06
			-29.70		1.0967E-03
			-28.60		1.4386E-03
			-27.50		1.8353E-03
			-26.40		2.2281E-03
			-25.30		2.5574E-03
			-24.20		2.7988E-03
			-23.10		2.9600E-03
			-22.00		3.0604E-03
			-20.90		3.1230E-03
			-19.80		3.1628E-03
			-18.70		3.1865E-03
			-17.60		3.2014E-03
			-16.50		3.2134E-03
			-15.40		3.2246E-03
			-14.30		3.2343E-03
			-13.20		3.2401E-03
			-12.10		3.2437E-03
			-11.00		3.2487E-03
			-9.90		3.2548E-03
			-8.80		3.2596E-03
			-7.70		3.2631E-03
			-6.60		3.2660E-03
			-5.50		3.2670E-03
			-3.30		3.2663E-03
			-1.10		3.2657E-03
			0.00		3.2655E-03
			1.10		3.2657E-03
			3.30		3.2663E-03
			5.50		3.2670E-03
			6.60		3.2660E-03
			7.70		3.2631E-03
			8.80		3.2596E-03
			9.90		3.2548E-03
			11.00		3.2487E-03
			12.10		3.2437E-03
			13.20		3.2401E-03
			14.30		3.2343E-03
			15.40		3.2246E-03
			16.50		3.2134E-03
			17.60		3.2014E-03
			18.70		3.1865E-03
			19.80		3.1628E-03
			20.90		3.1230E-03
			22.00		3.0604E-03
			23.10		2.9600E-03
			24.20		2.7988E-03
			25.30		2.5574E-03
			26.40		2.2281E-03
			27.50		1.8353E-03
			28.60		1.4386E-03
			29.70		1.0967E-03
			30.80		835.88E-06
			31.90		651.34E-06
			33.00		526.89E-06
			34.10		444.87E-06
			35.20		389.41E-06
			36.30		350.36E-06
			37.40		322.01E-06
			38.50		299.90E-06
			39.60		281.54E-06
			40.70		266.20E-06
			41.80		253.01E-06
			42.90		241.24E-06
			44.00		231.50E-06
			49.50		193.28E-06
			55.00		163.50E-06
			60.50		140.50E-06
			66.00		121.78E-06
			71.50		106.63E-06
			77.00		93.966E-06
			82.50		83.090E-06
			88.00		73.996E-06
			93.50		66.329E-06
			99.00		59.375E-06
			104.50		53.134E-06
			110.00		48.142E-06
			115.50		44.041E-06
			121.00		40.118E-06
			126.50		36.552E-06
			132.00		33.521E-06
			137.50		30.846E-06
			143.00		28.707E-06
			148.50		27.102E-06
		END_DATA
	END_SCAN  4
	BEGIN_SCAN  5
		TASK_NAME=tba PDD Profiles
		PROGRAM=tbaScan
		MEAS_DATE=27-May-2015 12:53:51
		LINAC=M2619
		MODALITY=X
		ISOCENTER=1000.00
		INPLANE_AXIS=Solid
		CROSSPLANE_AXIS=MLC
		DEPTH_AXIS=Depth
		INPLANE_AXIS_DIR=TARGET_GUN
		CROSSPLANE_AXIS_DIR=LEFT_RIGHT
		DEPTH_AXIS_DIR=UP_DOWN
		ENERGY=6.00
		NOMINAL_DMAX=15.00
		SSD=900.00
		SCD=450.00
		WEDGE_ANGLE=0.00
		FIELD_INPLANE=50.00
		FIELD_CROSSPLANE=50.00
		FIELD_TYPE=RECTANGULAR
		GANTRY=0.00
		GANTRY_UPRIGHT_POSITION=0
		GANTRY_ROTATION=CW
		COLL_ANGLE=0.00
		COLL_OFFSET_INPLANE=0.00
		COLL_OFFSET_CROSSPLANE=0.00
		SCAN_DEVICE=MP3
		SCAN_DEVICE_SETUP=BARA_TARGET_GUN
		ELECTROMETER=TANDEM
		RANGE_FIELD=AUTO
		RANGE_REFERENCE=AUTO
		DETECTOR=DOSIMETRY_DIODE
		DETECTOR_RADIUS=0.00
		DETECTOR_NAME=PTW 60008 Diode P
		DETECTOR_SN=0000
		DETECTOR_CALIBRATION=5700000.00
		DETECTOR_IS_CALIBRATED=0
		DETECTOR_REFERENCE=THIMBLE_CHAMBER
		DETECTOR_REFERENCE_SUBCODE=SEMIFLEX
		DETECTOR_REFERENCE_RADIUS=2.75
		DETECTOR_REFERENCE_NAME=PTW 31002 Semiflex
		DETECTOR_REFERENCE_SN=0000
		DETECTOR_REFERENCE_IS_CALIBRATED=0
		DETECTOR_REFERENCE_CALIBRATION=250000000.00
		DETECTOR_HV=0.0
		REF_FIELD_DEPTH=100.00
		REF_FIELD_DEFINED=ISOCENTER
		REF_FIELD_INPLANE=100.00
		REF_FIELD_CROSSPLANE=100.00
		REF_SCAN_POSITIONS=-160.00;-155.00;-150.00;-145.00;-140.00;-135.00;-130.00;-125.00;-120.00;-115.00;-110.00;-105.00;-100.00;-95.00;-90.00;-85.00;-80.00;-75.00;-70.00;-65.00;-64.00;-63.00;-62.00;-61.00;-60.00;-59.00;-58.00;-57.00;-56.00;-55.00;-54.00;-53.00;-52.00;-51.00;-50.00;-49.00;-48.00;-47.00;-46.00;-45.00;-44.00;-43.00;-42.00;-41.00;-40.00;-39.00;-38.00;-37.00;-36.00;-35.00;-34.00;-33.00;-32.00;-31.00;-30.00;-28.00;-26.00;-24.00;-22.00;-20.00;-18.00;-16.00;-14.00;-12.00;-10.00;-8.00;-6.00;-4.00;-2.00;0.00;2.00;4.00;6.00;8.00;10.00;12.00;14.00;16.00;18.00;20.00;22.00;24.00;26.00;28.00;30.00;31.00;32.00;33.00;34.00;35.00;36.00;37.00;38.00;39.00;40.00;41.00;42.00;43.00;44.00;45.00;46.00;47.00;48.00;49.00;50.00;51.00;52.00;53.00;54.00;55.00;56.00;57.00;58.00;59.00;60.00;61.00;62.00;63.00;64.00;65.00;70.00;75.00;80.00;85.00;90.00;95.00;100.00;105.00;110.00;115.00;120.00;125.00;130.00;135.00;140.00;145.00;150.00;155.00;160.00;
		REF_OVERSCAN_FACTOR=1.00
		SCAN_CURVETYPE=INPLANE_PROFILE
		SCAN_DEPTH=15.00
		SCAN_OFFAXIS_INPLANE=0.00
		SCAN_OFFAXIS_CROSSPLANE=0.00
		SCAN_ANGLE=0.00
		SCAN_DIAGONAL=NOT_DIAGONAL
		SCAN_DIRECTION=POSITIVE
		MEAS_MEDIUM=WATER
		MEAS_PRESET=MONITOR_TRIGGER
		MEAS_TRIGGER=400
		TIMEOUT=120.00
		EDGE=1
		MEAS_UNIT=cGy/MU
		SCAN_SPEEDS=20.00; 8.00;40.00; 25.00;100.00; 40.00;400.00; 50.00;
		DELAY_TIMES=40.00; 0.500;150.00; 0.000;400.00; 0.000;
		INCLINATION_ANGLE=0.00
		PRESSURE=1013.25
		TEMPERATURE=20.00
		NORM_TEMPERATURE=20.00
		CORRECTION_FACTOR=1.0000
		EXPECTED_MAX_DOSE_RATE=7.00
		CORRECTIONS=SMOOTHED_CORR;SYMMETRY_CORR;
		BEGIN_DATA
			-123.53		39.939E-06
			-118.95		40.653E-06
			-114.38		41.722E-06
			-109.80		43.507E-06
			-105.23		45.466E-06
			-100.65		47.251E-06
			-96.08		49.389E-06
			-91.50		52.066E-06
			-86.93		54.916E-06
			-82.35		58.308E-06
			-77.78		63.295E-06
			-73.20		69.542E-06
			-68.63		75.776E-06
			-64.05		82.915E-06
			-59.48		92.712E-06
			-54.90		105.57E-06
			-50.33		121.95E-06
			-45.75		143.53E-06
			-41.17		173.15E-06
			-36.60		212.43E-06
			-35.69		223.20E-06
			-34.77		237.32E-06
			-33.85		254.31E-06
			-32.94		275.30E-06
			-32.03		302.50E-06
			-31.11		338.89E-06
			-30.20		386.24E-06
			-29.28		450.40E-06
			-28.36		541.09E-06
			-27.45		673.37E-06
			-26.53		883.12E-06
			-25.62		1.2342E-03
			-24.70		1.8784E-03
			-23.79		3.0702E-03
			-22.88		4.9393E-03
			-21.96		6.9226E-03
			-21.05		8.1992E-03
			-20.13		8.7901E-03
			-19.22		9.0552E-03
			-18.30		9.1939E-03
			-17.39		9.2702E-03
			-16.47		9.3147E-03
			-15.56		9.3432E-03
			-14.64		9.3600E-03
			-13.73		9.3700E-03
			-12.81		9.3757E-03
			-11.90		9.3809E-03
			-10.98		9.3866E-03
			-10.07		9.3926E-03
			-9.15		9.3973E-03
			-8.24		9.3966E-03
			-7.32		9.3980E-03
			-6.41		9.4064E-03
			-5.49		9.4119E-03
			-4.58		9.4082E-03
			-2.75		9.3925E-03
			-0.92		9.3888E-03
			0.00		9.3909E-03
			0.92		9.3888E-03
			2.75		9.3925E-03
			4.58		9.4082E-03
			5.49		9.4119E-03
			6.41		9.4064E-03
			7.32		9.3980E-03
			8.24		9.3966E-03
			9.15		9.3973E-03
			10.07		9.3926E-03
			10.98		9.3866E-03
			11.90		9.3809E-03
			12.81		9.3757E-03
			13.73		9.3700E-03
			14.64		9.3600E-03
			15.56		9.3432E-03
			16.47		9.3147E-03
			17.39		9.2702E-03
			18.30		9.1939E-03
			19.22		9.0552E-03
			20.13		8.7901E-03
			21.05		8.1992E-03
			21.96		6.9226E-03
			22.88		4.9393E-03
			23.79		3.0702E-03
			24.70		1.8784E-03
			25.62		1.2342E-03
			26.53		883.12E-06
			27.45		673.37E-06
			28.36		541.09E-06
			29.28		450.40E-06
			30.20		386.24E-06
			31.11		338.89E-06
			32.03		302.50E-06
			32.94		275.30E-06
			33.85		254.31E-06
			34.77		237.32E-06
			35.69		223.20E-06
			36.60		212.43E-06
			41.17		173.15E-06
			45.75		143.53E-06
			50.33		121.95E-06
			54.90		105.57E-06
			59.48		92.712E-06
			64.05		82.915E-06
			68.63		75.776E-06
			73.20		69.542E-06
			77.78		63.295E-06
			82.35		58.308E-06
			86.93		54.916E-06
			91.50		52.066E-06
			96.08		49.389E-06
			100.65		47.251E-06
			105.23		45.466E-06
			109.80		43.507E-06
			114.38		41.722E-06
			118.95		40.653E-06
			123.53		39.939E-06
		END_DATA
	END_SCAN  5
	BEGIN_SCAN  6
		TASK_NAME=tba PDD Profiles
		PROGRAM=tbaScan
		MEAS_DATE=27-May-2015 12:53:51
		LINAC=M2619
		MODALITY=X
		ISOCENTER=1000.00
		INPLANE_AXIS=Solid
		CROSSPLANE_AXIS=MLC
		DEPTH_AXIS=Depth
		INPLANE_AXIS_DIR=TARGET_GUN
		CROSSPLANE_AXIS_DIR=LEFT_RIGHT
		DEPTH_AXIS_DIR=UP_DOWN
		ENERGY=6.00
		NOMINAL_DMAX=15.00
		SSD=900.00
		SCD=450.00
		WEDGE_ANGLE=0.00
		FIELD_INPLANE=50.00
		FIELD_CROSSPLANE=50.00
		FIELD_TYPE=RECTANGULAR
		GANTRY=0.00
		GANTRY_UPRIGHT_POSITION=0
		GANTRY_ROTATION=CW
		COLL_ANGLE=0.00
		COLL_OFFSET_INPLANE=0.00
		COLL_OFFSET_CROSSPLANE=0.00
		SCAN_DEVICE=MP3
		SCAN_DEVICE_SETUP=BARA_TARGET_GUN
		ELECTROMETER=TANDEM
		RANGE_FIELD=AUTO
		RANGE_REFERENCE=AUTO
		DETECTOR=DOSIMETRY_DIODE
		DETECTOR_RADIUS=0.00
		DETECTOR_NAME=PTW 60008 Diode P
		DETECTOR_SN=0000
		DETECTOR_CALIBRATION=5700000.00
		DETECTOR_IS_CALIBRATED=0
		DETECTOR_REFERENCE=THIMBLE_CHAMBER
		DETECTOR_REFERENCE_SUBCODE=SEMIFLEX
		DETECTOR_REFERENCE_RADIUS=2.75
		DETECTOR_REFERENCE_NAME=PTW 31002 Semiflex
		DETECTOR_REFERENCE_SN=0000
		DETECTOR_REFERENCE_IS_CALIBRATED=0
		DETECTOR_REFERENCE_CALIBRATION=250000000.00
		DETECTOR_HV=0.0
		REF_FIELD_DEPTH=100.00
		REF_FIELD_DEFINED=ISOCENTER
		REF_FIELD_INPLANE=100.00
		REF_FIELD_CROSSPLANE=100.00
		REF_SCAN_POSITIONS=-160.00;-155.00;-150.00;-145.00;-140.00;-135.00;-130.00;-125.00;-120.00;-115.00;-110.00;-105.00;-100.00;-95.00;-90.00;-85.00;-80.00;-75.00;-70.00;-65.00;-64.00;-63.00;-62.00;-61.00;-60.00;-59.00;-58.00;-57.00;-56.00;-55.00;-54.00;-53.00;-52.00;-51.00;-50.00;-49.00;-48.00;-47.00;-46.00;-45.00;-44.00;-43.00;-42.00;-41.00;-40.00;-39.00;-38.00;-37.00;-36.00;-35.00;-34.00;-33.00;-32.00;-31.00;-30.00;-28.00;-26.00;-24.00;-22.00;-20.00;-18.00;-16.00;-14.00;-12.00;-10.00;-8.00;-6.00;-4.00;-2.00;0.00;2.00;4.00;6.00;8.00;10.00;12.00;14.00;16.00;18.00;20.00;22.00;24.00;26.00;28.00;30.00;31.00;32.00;33.00;34.00;35.00;36.00;37.00;38.00;39.00;40.00;41.00;42.00;43.00;44.00;45.00;46.00;47.00;48.00;49.00;50.00;51.00;52.00;53.00;54.00;55.00;56.00;57.00;58.00;59.00;60.00;61.00;62.00;63.00;64.00;65.00;70.00;75.00;80.00;85.00;90.00;95.00;100.00;105.00;110.00;115.00;120.00;125.00;130.00;135.00;140.00;145.00;150.00;155.00;160.00;
		REF_OVERSCAN_FACTOR=1.00
		SCAN_CURVETYPE=INPLANE_PROFILE
		SCAN_DEPTH=50.00
		SCAN_OFFAXIS_INPLANE=0.00
		SCAN_OFFAXIS_CROSSPLANE=0.00
		SCAN_ANGLE=0.00
		SCAN_DIAGONAL=NOT_DIAGONAL
		SCAN_DIRECTION=POSITIVE
		MEAS_MEDIUM=WATER
		MEAS_PRESET=MONITOR_TRIGGER
		MEAS_TRIGGER=400
		TIMEOUT=120.00
		EDGE=1
		MEAS_UNIT=cGy/MU
		SCAN_SPEEDS=20.00; 8.00;40.00; 25.00;100.00; 40.00;400.00; 50.00;
		DELAY_TIMES=40.00; 0.500;150.00; 0.000;400.00; 0.000;
		INCLINATION_ANGLE=0.00
		PRESSURE=1013.25
		TEMPERATURE=20.00
		NORM_TEMPERATURE=20.00
		CORRECTION_FACTOR=1.0000
		EXPECTED_MAX_DOSE_RATE=7.00
		CORRECTIONS=SMOOTHED_CORR;SYMMETRY_CORR;
		BEGIN_DATA
			-128.25		37.800E-06
			-123.50		39.583E-06
			-118.75		41.010E-06
			-114.00		42.614E-06
			-109.25		44.398E-06
			-104.50		46.537E-06
			-99.75		49.211E-06
			-95.00		52.065E-06
			-90.25		55.274E-06
			-85.50		59.553E-06
			-80.75		65.081E-06
			-76.00		71.321E-06
